# time, position, voltage, velocity, acceleration, goal, limitSensor, lastError
0.000000, 0.100000, 0.000000, 0.000000, 0.000000, 0.200000, 0.000000, 0.000000
0.010000, 0.100000, -0.715000, 0.000000, -0.252035, 0.199500, 0.000000, -0.000500
0.020000, 0.099987, -0.711840, -0.002537, -0.249188, 0.199000, 0.000000, -0.000987
0.030000, 0.099949, -0.690024, -0.005045, -0.239785, 0.198500, 0.000000, -0.001449
0.040000, 0.099886, -0.668330, -0.007459, -0.230489, 0.198000, 0.000000, -0.001886
0.050000, 0.099799, -0.647250, -0.009779, -0.221473, 0.197500, 0.000000, -0.002299
0.060000, 0.099689, -0.626783, -0.012008, -0.212736, 0.197000, 0.000000, -0.002689
0.070000, 0.099557, -0.606918, -0.014149, -0.204271, 0.196500, 0.000000, -0.003057
0.080000, 0.099404, -0.587641, -0.016205, -0.196072, 0.196000, 0.000000, -0.003404
0.090000, 0.099230, -0.568939, -0.018179, -0.188131, 0.195500, 0.000000, -0.003730
0.100000, 0.099037, -0.550800, -0.020073, -0.180444, 0.195000, 0.000000, -0.004037
0.110000, 0.098826, -0.533212, -0.021889, -0.173003, 0.194500, 0.000000, -0.004326
0.120000, 0.098596, -0.516161, -0.023630, -0.165803, 0.194000, 0.000000, -0.004596
0.130000, 0.098349, -0.499635, -0.025299, -0.158838, 0.193500, 0.000000, -0.004849
0.140000, 0.098085, -0.483622, -0.026898, -0.152102, 0.193000, 0.000000, -0.005085
0.150000, 0.097806, -0.468110, -0.028429, -0.145588, 0.192500, 0.000000, -0.005306
0.160000, 0.097511, -0.453087, -0.029894, -0.139292, 0.192000, 0.000000, -0.005511
0.170000, 0.097202, -0.438542, -0.031296, -0.133207, 0.191500, 0.000000, -0.005702
0.180000, 0.096880, -0.424462, -0.032637, -0.127328, 0.191000, 0.000000, -0.005880
0.190000, 0.096544, -0.410836, -0.033919, -0.121649, 0.190500, 0.000000, -0.006044
0.200000, 0.096195, -0.397653, -0.035143, -0.116166, 0.190000, 0.000000, -0.006195
0.210000, 0.095834, -0.384902, -0.036313, -0.110872, 0.189500, 0.000000, -0.006334
0.220000, 0.095462, -0.372571, -0.037429, -0.105764, 0.189000, 0.000000, -0.006462
0.230000, 0.095078, -0.360651, -0.038493, -0.100835, 0.188500, 0.000000, -0.006578
0.240000, 0.094685, -0.349130, -0.039508, -0.096080, 0.188000, 0.000000, -0.006685
0.250000, 0.094281, -0.337997, -0.040475, -0.091495, 0.187500, 0.000000, -0.006781
0.260000, 0.093867, -0.327244, -0.041396, -0.087076, 0.187000, 0.000000, -0.006867
0.270000, 0.093445, -0.316859, -0.042273, -0.082816, 0.186500, 0.000000, -0.006945
0.280000, 0.093014, -0.306832, -0.043106, -0.078713, 0.186000, 0.000000, -0.007014
0.290000, 0.092574, -0.297154, -0.043899, -0.074760, 0.185500, 0.000000, -0.007074
0.300000, 0.092127, -0.287816, -0.044651, -0.070954, 0.185000, 0.000000, -0.007127
0.310000, 0.091673, -0.278807, -0.045365, -0.067291, 0.184500, 0.000000, -0.007173
0.320000, 0.091211, -0.270120, -0.046043, -0.063766, 0.184000, 0.000000, -0.007211
0.330000, 0.090743, -0.261744, -0.046684, -0.060375, 0.183500, 0.000000, -0.007243
0.340000, 0.090268, -0.253671, -0.047292, -0.057114, 0.183000, 0.000000, -0.007268
0.350000, 0.089788, -0.245892, -0.047867, -0.053979, 0.182500, 0.000000, -0.007288
0.360000, 0.089302, -0.238399, -0.048410, -0.050967, 0.182000, 0.000000, -0.007302
0.370000, 0.088810, -0.231183, -0.048923, -0.048073, 0.181500, 0.000000, -0.007310
0.380000, 0.088313, -0.224237, -0.049407, -0.045294, 0.181000, 0.000000, -0.007313
0.390000, 0.087812, -0.217552, -0.049863, -0.042626, 0.180500, 0.000000, -0.007312
0.400000, 0.087306, -0.211121, -0.050292, -0.040066, 0.180000, 0.000000, -0.007306
0.410000, 0.086796, -0.204935, -0.050695, -0.037610, 0.179500, 0.000000, -0.007296
0.420000, 0.086283, -0.198988, -0.051074, -0.035256, 0.179000, 0.000000, -0.007283
0.430000, 0.085765, -0.193273, -0.051429, -0.032998, 0.178500, 0.000000, -0.007265
0.440000, 0.085244, -0.187781, -0.051761, -0.030836, 0.178000, 0.000000, -0.007244
0.450000, 0.084719, -0.182507, -0.052071, -0.028765, 0.177500, 0.000000, -0.007219
0.460000, 0.084192, -0.177443, -0.052361, -0.026782, 0.177000, 0.000000, -0.007192
0.470000, 0.083662, -0.172583, -0.052631, -0.024885, 0.176500, 0.000000, -0.007162
0.480000, 0.083129, -0.167921, -0.052881, -0.023070, 0.176000, 0.000000, -0.007129
0.490000, 0.082594, -0.163449, -0.053113, -0.021335, 0.175500, 0.000000, -0.007094
0.500000, 0.082056, -0.159162, -0.053328, -0.019677, 0.175000, 0.000000, -0.007056
0.510000, 0.081517, -0.155055, -0.053526, -0.018094, 0.174500, 0.000000, -0.007017
0.520000, 0.080975, -0.151120, -0.053708, -0.016583, 0.174000, 0.000000, -0.006975
0.530000, 0.080432, -0.147353, -0.053875, -0.015141, 0.173500, 0.000000, -0.006932
0.540000, 0.079887, -0.143747, -0.054027, -0.013766, 0.173000, 0.000000, -0.006887
0.550000, 0.079341, -0.140298, -0.054166, -0.012455, 0.172500, 0.000000, -0.006841
0.560000, 0.078793, -0.137000, -0.054291, -0.011207, 0.172000, 0.000000, -0.006793
0.570000, 0.078244, -0.133848, -0.054404, -0.010019, 0.171500, 0.000000, -0.006744
0.580000, 0.077694, -0.130837, -0.054505, -0.008889, 0.171000, 0.000000, -0.006694
0.590000, 0.077143, -0.127962, -0.054595, -0.007814, 0.170500, 0.000000, -0.006643
0.600000, 0.076591, -0.125219, -0.054673, -0.006794, 0.170000, 0.000000, -0.006591
0.610000, 0.076039, -0.122603, -0.054742, -0.005825, 0.169500, 0.000000, -0.006539
0.620000, 0.075486, -0.120109, -0.054800, -0.004906, 0.169000, 0.000000, -0.006486
0.630000, 0.074932, -0.117733, -0.054850, -0.004034, 0.168500, 0.000000, -0.006432
0.640000, 0.074378, -0.115470, -0.054890, -0.003209, 0.168000, 0.000000, -0.006378
0.650000, 0.073823, -0.113318, -0.054923, -0.002428, 0.167500, 0.000000, -0.006323
0.660000, 0.073268, -0.111271, -0.054947, -0.001690, 0.167000, 0.000000, -0.006268
0.670000, 0.072713, -0.109326, -0.054964, -0.000993, 0.166500, 0.000000, -0.006213
0.680000, 0.072158, -0.107479, -0.054974, -0.000335, 0.166000, 0.000000, -0.006158
0.690000, 0.071603, -0.105726, -0.054977, 0.000285, 0.165500, 0.000000, -0.006103
0.700000, 0.071047, -0.104065, -0.054974, 0.000869, 0.165000, 0.000000, -0.006047
0.710000, 0.070492, -0.102491, -0.054966, 0.001418, 0.164500, 0.000000, -0.005992
0.720000, 0.069937, -0.101001, -0.054951, 0.001933, 0.164000, 0.000000, -0.005937
0.730000, 0.069382, -0.099591, -0.054932, 0.002417, 0.163500, 0.000000, -0.005882
0.740000, 0.068828, -0.098260, -0.054908, 0.002869, 0.163000, 0.000000, -0.005828
0.750000, 0.068273, -0.097003, -0.054879, 0.003293, 0.162500, 0.000000, -0.005773
0.760000, 0.067719, -0.095818, -0.054846, 0.003688, 0.162000, 0.000000, -0.005719
0.770000, 0.067165, -0.094702, -0.054809, 0.004056, 0.161500, 0.000000, -0.005665
0.780000, 0.066612, -0.093652, -0.054768, 0.004398, 0.161000, 0.000000, -0.005612
0.790000, 0.066059, -0.092665, -0.054723, 0.004716, 0.160500, 0.000000, -0.005559
0.800000, 0.065507, -0.091740, -0.054676, 0.005010, 0.160000, 0.000000, -0.005507
0.810000, 0.064955, -0.090872, -0.054626, 0.005281, 0.159500, 0.000000, -0.005455
0.820000, 0.064403, -0.090061, -0.054572, 0.005531, 0.159000, 0.000000, -0.005403
0.830000, 0.063852, -0.089303, -0.054517, 0.005760, 0.158500, 0.000000, -0.005352
0.840000, 0.063302, -0.088597, -0.054459, 0.005969, 0.158000, 0.000000, -0.005302
0.850000, 0.062752, -0.087939, -0.054399, 0.006160, 0.157500, 0.000000, -0.005252
0.860000, 0.062203, -0.087329, -0.054337, 0.006333, 0.157000, 0.000000, -0.005203
0.870000, 0.061655, -0.086763, -0.054273, 0.006488, 0.156500, 0.000000, -0.005155
0.880000, 0.061107, -0.086241, -0.054208, 0.006628, 0.156000, 0.000000, -0.005107
0.890000, 0.060560, -0.085759, -0.054141, 0.006752, 0.155500, 0.000000, -0.005060
0.900000, 0.060013, -0.085317, -0.054073, 0.006862, 0.155000, 0.000000, -0.005013
0.910000, 0.059467, -0.084912, -0.054004, 0.006957, 0.154500, 0.000000, -0.004967
0.920000, 0.058922, -0.084542, -0.053934, 0.007040, 0.154000, 0.000000, -0.004922
0.930000, 0.058378, -0.084207, -0.053863, 0.007109, 0.153500, 0.000000, -0.004878
0.940000, 0.057834, -0.083904, -0.053791, 0.007167, 0.153000, 0.000000, -0.004834
0.950000, 0.057291, -0.083632, -0.053719, 0.007214, 0.152500, 0.000000, -0.004791
0.960000, 0.056749, -0.083390, -0.053647, 0.007250, 0.152000, 0.000000, -0.004749
0.970000, 0.056208, -0.083175, -0.053574, 0.007276, 0.151500, 0.000000, -0.004708
0.980000, 0.055667, -0.082987, -0.053500, 0.007292, 0.151000, 0.000000, -0.004667
0.990000, 0.055127, -0.082824, -0.053427, 0.007299, 0.150500, 0.000000, -0.004627
1.000000, 0.054588, -0.082685, -0.053354, 0.007298, 0.150000, 0.000000, -0.004588
1.010000, 0.054049, -0.082568, -0.053280, 0.007289, 0.149500, 0.000000, -0.004549
1.020000, 0.053511, -0.082474, -0.053207, 0.007272, 0.149000, 0.000000, -0.004511
1.030000, 0.052974, -0.082399, -0.053134, 0.007248, 0.148500, 0.000000, -0.004474
1.040000, 0.052438, -0.082344, -0.053061, 0.007218, 0.148000, 0.000000, -0.004438
1.050000, 0.051902, -0.082307, -0.052988, 0.007181, 0.147500, 0.000000, -0.004402
1.060000, 0.051368, -0.082287, -0.052916, 0.007139, 0.147000, 0.000000, -0.004368
1.070000, 0.050834, -0.082284, -0.052844, 0.007091, 0.146500, 0.000000, -0.004334
1.080000, 0.050300, -0.082296, -0.052772, 0.007038, 0.146000, 0.000000, -0.004300
1.090000, 0.049768, -0.082322, -0.052702, 0.006981, 0.145500, 0.000000, -0.004268
1.100000, 0.049236, -0.082361, -0.052631, 0.006919, 0.145000, 0.000000, -0.004236
1.110000, 0.048704, -0.082414, -0.052562, 0.006853, 0.144500, 0.000000, -0.004204
1.120000, 0.048174, -0.082478, -0.052493, 0.006783, 0.144000, 0.000000, -0.004174
1.130000, 0.047644, -0.082553, -0.052424, 0.006710, 0.143500, 0.000000, -0.004144
1.140000, 0.047115, -0.082639, -0.052357, 0.006633, 0.143000, 0.000000, -0.004115
1.150000, 0.046586, -0.082735, -0.052290, 0.006554, 0.142500, 0.000000, -0.004086
1.160000, 0.046059, -0.082839, -0.052224, 0.006472, 0.142000, 0.000000, -0.004059
1.170000, 0.045531, -0.082952, -0.052159, 0.006388, 0.141500, 0.000000, -0.004031
1.180000, 0.045005, -0.083073, -0.052095, 0.006301, 0.141000, 0.000000, -0.004005
1.190000, 0.044479, -0.083201, -0.052031, 0.006213, 0.140500, 0.000000, -0.003979
1.200000, 0.043954, -0.083335, -0.051969, 0.006123, 0.140000, 0.000000, -0.003954
1.210000, 0.043429, -0.083476, -0.051907, 0.006031, 0.139500, 0.000000, -0.003929
1.220000, 0.042905, -0.083622, -0.051846, 0.005938, 0.139000, 0.000000, -0.003905
1.230000, 0.042382, -0.083774, -0.051787, 0.005844, 0.138500, 0.000000, -0.003882
1.240000, 0.041859, -0.083930, -0.051728, 0.005749, 0.138000, 0.000000, -0.003859
1.250000, 0.041337, -0.084090, -0.051670, 0.005653, 0.137500, 0.000000, -0.003837
1.260000, 0.040816, -0.084254, -0.051613, 0.005556, 0.137000, 0.000000, -0.003816
1.270000, 0.040295, -0.084421, -0.051557, 0.005459, 0.136500, 0.000000, -0.003795
1.280000, 0.039774, -0.084592, -0.051502, 0.005361, 0.136000, 0.000000, -0.003774
1.290000, 0.039254, -0.084765, -0.051448, 0.005263, 0.135500, 0.000000, -0.003754
1.300000, 0.038735, -0.084940, -0.051395, 0.005165, 0.135000, 0.000000, -0.003735
1.310000, 0.038216, -0.085117, -0.051343, 0.005067, 0.134500, 0.000000, -0.003716
1.320000, 0.037698, -0.085296, -0.051292, 0.004970, 0.134000, 0.000000, -0.003698
1.330000, 0.037180, -0.085476, -0.051242, 0.004872, 0.133500, 0.000000, -0.003680
1.340000, 0.036663, -0.085658, -0.051193, 0.004774, 0.133000, 0.000000, -0.003663
1.350000, 0.036146, -0.085840, -0.051145, 0.004677, 0.132500, 0.000000, -0.003646
1.360000, 0.035629, -0.086023, -0.051098, 0.004581, 0.132000, 0.000000, -0.003629
1.370000, 0.035114, -0.086206, -0.051052, 0.004485, 0.131500, 0.000000, -0.003614
1.380000, 0.034598, -0.086389, -0.051007, 0.004389, 0.131000, 0.000000, -0.003598
1.390000, 0.034083, -0.086572, -0.050963, 0.004295, 0.130500, 0.000000, -0.003583
1.400000, 0.033569, -0.086755, -0.050919, 0.004201, 0.130000, 0.000000, -0.003569
1.410000, 0.033055, -0.086938, -0.050877, 0.004107, 0.129500, 0.000000, -0.003555
1.420000, 0.032541, -0.087119, -0.050836, 0.004015, 0.129000, 0.000000, -0.003541
1.430000, 0.032028, -0.087300, -0.050795, 0.003924, 0.128500, 0.000000, -0.003528
1.440000, 0.031515, -0.087480, -0.050756, 0.003833, 0.128000, 0.000000, -0.003515
1.450000, 0.031003, -0.087659, -0.050717, 0.003744, 0.127500, 0.000000, -0.003503
1.460000, 0.030490, -0.087837, -0.050680, 0.003656, 0.127000, 0.000000, -0.003490
1.470000, 0.029979, -0.088013, -0.050643, 0.003568, 0.126500, 0.000000, -0.003479
1.480000, 0.029467, -0.088188, -0.050607, 0.003482, 0.126000, 0.000000, -0.003467
1.490000, 0.028957, -0.088361, -0.050572, 0.003397, 0.125500, 0.000000, -0.003457
1.500000, 0.028446, -0.088532, -0.050538, 0.003313, 0.125000, 0.000000, -0.003446
1.510000, 0.027936, -0.088702, -0.050504, 0.003231, 0.124500, 0.000000, -0.003436
1.520000, 0.027426, -0.088870, -0.050472, 0.003149, 0.124000, 0.000000, -0.003426
1.530000, 0.026916, -0.089036, -0.050440, 0.003069, 0.123500, 0.000000, -0.003416
1.540000, 0.026407, -0.089200, -0.050409, 0.002990, 0.123000, 0.000000, -0.003407
1.550000, 0.025898, -0.089362, -0.050379, 0.002913, 0.122500, 0.000000, -0.003398
1.560000, 0.025389, -0.089521, -0.050350, 0.002836, 0.122000, 0.000000, -0.003389
1.570000, 0.024881, -0.089679, -0.050321, 0.002761, 0.121500, 0.000000, -0.003381
1.580000, 0.024373, -0.089834, -0.050293, 0.002688, 0.121000, 0.000000, -0.003373
1.590000, 0.023865, -0.089987, -0.050266, 0.002615, 0.120500, 0.000000, -0.003365
1.600000, 0.023357, -0.090138, -0.050240, 0.002544, 0.120000, 0.000000, -0.003357
1.610000, 0.022850, -0.090286, -0.050214, 0.002474, 0.119500, 0.000000, -0.003350
1.620000, 0.022343, -0.090432, -0.050189, 0.002406, 0.119000, 0.000000, -0.003343
1.630000, 0.021836, -0.090576, -0.050165, 0.002339, 0.118500, 0.000000, -0.003336
1.640000, 0.021330, -0.090717, -0.050142, 0.002273, 0.118000, 0.000000, -0.003330
1.650000, 0.020823, -0.090855, -0.050119, 0.002208, 0.117500, 0.000000, -0.003323
1.660000, 0.020317, -0.090992, -0.050097, 0.002145, 0.117000, 0.000000, -0.003317
1.670000, 0.019811, -0.091126, -0.050075, 0.002083, 0.116500, 0.000000, -0.003311
1.680000, 0.019306, -0.091257, -0.050054, 0.002023, 0.116000, 0.000000, -0.003306
1.690000, 0.018800, -0.091386, -0.050034, 0.001963, 0.115500, 0.000000, -0.003300
1.700000, 0.018295, -0.091512, -0.050014, 0.001905, 0.115000, 0.000000, -0.003295
1.710000, 0.017790, -0.091636, -0.049995, 0.001848, 0.114500, 0.000000, -0.003290
1.720000, 0.017285, -0.091758, -0.049976, 0.001793, 0.114000, 0.000000, -0.003285
1.730000, 0.016780, -0.091877, -0.049958, 0.001739, 0.113500, 0.000000, -0.003280
1.740000, 0.016276, -0.091994, -0.049941, 0.001685, 0.113000, 0.000000, -0.003276
1.750000, 0.015772, -0.092108, -0.049924, 0.001634, 0.112500, 0.000000, -0.003272
1.760000, 0.015267, -0.092220, -0.049907, 0.001583, 0.112000, 0.000000, -0.003267
1.770000, 0.014764, -0.092329, -0.049891, 0.001533, 0.111500, 0.000000, -0.003264
1.780000, 0.014260, -0.092436, -0.049876, 0.001485, 0.111000, 0.000000, -0.003260
1.790000, 0.013756, -0.092541, -0.049861, 0.001438, 0.110500, 0.000000, -0.003256
1.800000, 0.013252, -0.092643, -0.049846, 0.001392, 0.110000, 0.000000, -0.003252
1.810000, 0.012749, -0.092743, -0.049832, 0.001347, 0.109500, 0.000000, -0.003249
1.820000, 0.012246, -0.092841, -0.049819, 0.001304, 0.109000, 0.000000, -0.003246
1.830000, 0.011743, -0.092937, -0.049806, 0.001261, 0.108500, 0.000000, -0.003243
1.840000, 0.011240, -0.093030, -0.049793, 0.001219, 0.108000, 0.000000, -0.003240
1.850000, 0.010737, -0.093121, -0.049781, 0.001179, 0.107500, 0.000000, -0.003237
1.860000, 0.010234, -0.093210, -0.049769, 0.001139, 0.107000, 0.000000, -0.003234
1.870000, 0.009732, -0.093297, -0.049757, 0.001101, 0.106500, 0.000000, -0.003232
1.880000, 0.009229, -0.093381, -0.049746, 0.001064, 0.106000, 0.000000, -0.003229
1.890000, 0.008727, -0.093464, -0.049736, 0.001027, 0.105500, 0.000000, -0.003227
1.900000, 0.008224, -0.093544, -0.049725, 0.000992, 0.105000, 0.000000, -0.003224
1.910000, 0.007722, -0.093623, -0.049715, 0.000957, 0.104500, 0.000000, -0.003222
1.920000, 0.007220, -0.093699, -0.049706, 0.000924, 0.104000, 0.000000, -0.003220
1.930000, 0.006718, -0.093774, -0.049696, 0.000891, 0.103500, 0.000000, -0.003218
1.940000, 0.006216, -0.093846, -0.049687, 0.000859, 0.103000, 0.000000, -0.003216
1.950000, 0.005715, -0.093917, -0.049679, 0.000829, 0.102500, 0.000000, -0.003215
1.960000, 0.005213, -0.093986, -0.049670, 0.000799, 0.102000, 0.000000, -0.003213
1.970000, 0.004711, -0.094053, -0.049662, 0.000770, 0.101500, 0.000000, -0.003211
1.980000, 0.004210, -0.094118, -0.049655, 0.000741, 0.101000, 0.000000, -0.003210
1.990000, 0.003708, -0.094181, -0.049647, 0.000714, 0.100500, 0.000000, -0.003208
2.000000, 0.003207, -0.094243, -0.049640, 0.000687, 0.100000, 0.000000, -0.003207
2.010000, 0.002705, -0.094302, -0.049633, 0.000662, 0.099500, 0.000000, -0.003205
2.020000, 0.002204, -0.094361, -0.049626, 0.000636, 0.099000, 0.000000, -0.003204
2.030000, 0.001703, -0.094417, -0.049620, 0.000612, 0.098500, 0.000000, -0.003203
2.040000, 0.001202, -0.094472, -0.049614, 0.000589, 0.098000, 0.000000, -0.003202
2.050000, 0.000701, -0.094525, -0.049608, 0.000566, 0.097500, 0.000000, -0.003201
2.060000, 0.000200, -0.094577, -0.049602, 0.000544, 0.097000, 0.000000, -0.003200
2.070000, -0.000301, 12.000000, -0.049597, 4.263829, 0.096500, 1.000000, 0.096500
2.080000, -0.000587, 12.000000, -0.006679, 4.234513, 1.000000, 1.000000, 1.000286
2.090000, -0.000441, 12.000000, 0.035944, 4.205399, 1.000000, 1.000000, 1.000140
2.100000, 0.000134, 12.000000, 0.078274, 4.176485, 1.000000, 0.000000, 0.999565
2.110000, 0.001135, 12.000000, 0.120313, 4.147770, 1.000000, 0.000000, 0.998564
2.120000, 0.002559, 12.000000, 0.162062, 4.119252, 1.000000, 0.000000, 0.997140
2.130000, 0.004403, 12.000000, 0.203525, 4.090930, 1.000000, 0.000000, 0.995296
2.140000, 0.006665, 12.000000, 0.244703, 4.062803, 1.000000, 0.000000, 0.993034
2.150000, 0.009341, 12.000000, 0.285597, 4.034869, 1.000000, 0.000000, 0.990358
2.160000, 0.012429, 12.000000, 0.326210, 4.007127, 1.000000, 0.000000, 0.987270
2.170000, 0.015925, 12.000000, 0.366544, 3.979576, 1.000000, 0.000000, 0.983773
2.180000, 0.019828, 12.000000, 0.406601, 3.952215, 1.000000, 0.000000, 0.979871
2.190000, 0.024134, 12.000000, 0.446383, 3.925042, 1.000000, 0.000000, 0.975565
2.200000, 0.028840, 12.000000, 0.485890, 3.898055, 1.000000, 0.000000, 0.970859
2.210000, 0.033944, 12.000000, 0.525127, 3.871254, 1.000000, 0.000000, 0.965755
2.220000, 0.039443, 12.000000, 0.564093, 3.844637, 1.000000, 0.000000, 0.960256
2.230000, 0.045334, 12.000000, 0.602792, 3.818204, 1.000000, 0.000000, 0.954365
2.240000, 0.051615, 12.000000, 0.641224, 3.791952, 1.000000, 0.000000, 0.948084
2.250000, 0.058282, 12.000000, 0.679392, 3.765880, 1.000000, 0.000000, 0.941417
2.260000, 0.065334, 12.000000, 0.717298, 3.739988, 1.000000, 0.000000, 0.934365
2.270000, 0.072767, 12.000000, 0.754943, 3.714274, 1.000000, 0.000000, 0.926932
2.280000, 0.080579, 12.000000, 0.792329, 3.688736, 1.000000, 0.000000, 0.919120
2.290000, 0.088767, 12.000000, 0.829459, 3.663374, 1.000000, 0.000000, 0.910932
2.300000, 0.097329, 12.000000, 0.866333, 3.638187, 1.000000, 0.000000, 0.902370
2.310000, 0.106263, 12.000000, 0.902953, 3.613173, 1.000000, 0.000000, 0.893436
2.320000, 0.115564, 12.000000, 0.939322, 3.588330, 1.000000, 0.000000, 0.884134
2.330000, 0.125232, 12.000000, 0.975440, 3.563659, 1.000000, 0.000000, 0.874466
2.340000, 0.135264, 11.888935, 1.011311, 3.500007, 1.000000, 0.000000, 0.864435
2.350000, 0.145654, 11.074501, 1.046540, 3.188858, 1.000000, 0.000000, 0.854044
2.360000, 0.156385, 10.276381, 1.078638, 2.885599, 1.000000, 0.000000, 0.843314
2.370000, 0.167425, 9.512722, 1.107683, 2.596573, 1.000000, 0.000000, 0.832274
2.380000, 0.178743, 8.782858, 1.133819, 2.321446, 1.000000, 0.000000, 0.820956
2.390000, 0.190312, 8.085646, 1.157186, 2.059720, 1.000000, 0.000000, 0.809387
2.400000, 0.202103, 7.419962, 1.177918, 1.810908, 1.000000, 0.000000, 0.797596
2.410000, 0.214091, 6.784713, 1.196146, 1.574534, 1.000000, 0.000000, 0.785607
2.420000, 0.226252, 6.178833, 1.211995, 1.350138, 1.000000, 0.000000, 0.773447
